# x [m]           y [m]           
  -1.00000000e+00 +5.00000000e-01 
  -9.80500142e-01 +4.53961026e-01 
  -9.58794085e-01 +4.08920171e-01 
  -9.34932745e-01 +3.64983080e-01 
  -9.08972093e-01 +3.22252809e-01 
  -8.80973023e-01 +2.80829583e-01 
  -8.51001209e-01 +2.40810563e-01 
  -8.19126955e-01 +2.02289615e-01 
  -7.85425025e-01 +1.65357090e-01 
  -7.49974468e-01 +1.30099614e-01 
  -7.12858438e-01 +9.65998847e-02 
  -6.74163992e-01 +6.49364768e-02 
  -6.33981891e-01 +3.51836572e-02 
  -5.92406383e-01 +7.41121201e-03 
  -5.49534987e-01 -1.83157179e-02 
  -5.05468259e-01 -4.19367892e-02 
  -4.60309559e-01 -6.33965979e-02 
  -4.14164810e-01 -8.26448093e-02 
  -3.67142245e-01 -9.96362758e-02 
  -3.19352158e-01 -1.14331143e-01 
  -2.70906642e-01 -1.26694943e-01 
  -2.21919329e-01 -1.36698675e-01 
  -1.72505119e-01 -1.44318875e-01 
  -1.22779917e-01 -1.49537667e-01 
  -7.28603543e-02 -1.52342810e-01 
  -2.28635206e-02 -1.52727724e-01 
  +2.70834017e-02 -1.50461343e-01 
  +7.68025022e-02 -1.45184738e-01 
  +1.26085532e-01 -1.36757729e-01 
  +1.74713038e-01 -1.25130297e-01 
  +2.22464600e-01 -1.10310721e-01 
  +2.69135472e-01 -9.23758049e-02 
  +3.14544650e-01 -7.14512246e-02 
  +3.58560602e-01 -4.77356715e-02 
  +4.01120824e-01 -2.14971679e-02 
  +4.42243337e-01 +6.94172146e-03 
  +4.82058200e-01 +3.71842133e-02 
  +5.20856098e-01 +6.87207733e-02 
  +5.59157800e-01 +1.00858154e-01 
  +5.97731487e-01 +1.32668564e-01 
  +6.38529976e-01 +1.61570376e-01 
  +6.81546243e-01 +1.87054345e-01 
  +7.23280061e-01 +2.14588330e-01 
  +7.63633804e-01 +2.44107940e-01 
  +8.02513082e-01 +2.75544123e-01 
  +8.39826959e-01 +3.08823343e-01 
  +8.75488157e-01 +3.43867756e-01 
  +9.09413268e-01 +3.80595386e-01 
  +9.41522942e-01 +4.18920322e-01 
  +9.71742079e-01 +4.58752918e-01 
  +1.00000000e+00 +5.00000000e-01 
