# x [m]           y [m]
  -1.00000000e+00 +5.00000000e-01
  -9.80498899e-01 +4.53961553e-01
  -9.58791720e-01 +4.08921238e-01
  -9.34929379e-01 +3.64984690e-01
  -9.08967843e-01 +3.22254956e-01
  -8.80968003e-01 +2.80832251e-01
  -8.50995531e-01 +2.40813724e-01
  -8.19120724e-01 +2.02293232e-01
  -7.85418343e-01 +1.65361119e-01
  -7.49967430e-01 +1.30104001e-01
  -7.12851132e-01 +9.66045680e-02
  -6.74156501e-01 +6.49413872e-02
  -6.33974288e-01 +3.51887176e-02
  -5.92398736e-01 +7.41633932e-03
  -5.49527352e-01 -1.83106124e-02
  -5.05460686e-01 -4.19317997e-02
  -4.60302089e-01 -6.33918232e-02
  -4.14157472e-01 -8.26403520e-02
  -3.67135060e-01 -9.96322418e-02
  -3.19345136e-01 -1.14327641e-01
  -2.70899784e-01 -1.26692082e-01
  -2.21912624e-01 -1.36696568e-01
  -1.72498548e-01 -1.44317632e-01
  -1.22773448e-01 -1.49537400e-01
  -7.28539460e-02 -1.52343628e-01
  -2.28571213e-02 -1.52729734e-01
  +2.70898709e-02 -1.50464892e-01
  +7.68092084e-02 -1.45190519e-01
  +1.26092676e-01 -1.36766068e-01
  +1.74720813e-01 -1.25141275e-01
  +2.22473772e-01 -1.10326199e-01
  +2.69145151e-01 -9.23926050e-02
  +3.14555657e-01 -7.14709050e-02
  +3.58574429e-01 -4.77605861e-02
  +4.01134316e-01 -2.15215405e-02
  +4.42252388e-01 +6.92377016e-03
  +4.82060222e-01 +3.71755122e-02
  +5.20854540e-01 +6.87164780e-02
  +5.59152783e-01 +1.00857980e-01
  +5.97715642e-01 +1.32681517e-01
  +6.38505766e-01 +1.61595133e-01
  +6.81523380e-01 +1.87076828e-01
  +7.23258759e-01 +2.14608448e-01
  +7.63614285e-01 +2.44125619e-01
  +8.02495583e-01 +2.75559305e-01
  +8.39811723e-01 +3.08835989e-01
  +8.75475438e-01 +3.43877841e-01
  +9.09403324e-01 +3.80602906e-01
  +9.41516041e-01 +4.18925293e-01
  +9.71738491e-01 +4.58755376e-01
  +1.00000000e+00 +5.00000000e-01
