# x [m]           y [m]           
  -1.50000000e+01 -8.54112406e-02 
  -1.47474747e+01 -1.18759983e-01 
  -1.44949495e+01 -1.44567874e-01 
  -1.42424242e+01 -1.61197624e-01 
  -1.39898990e+01 -1.67594111e-01 
  -1.37373737e+01 -1.63351296e-01 
  -1.34848485e+01 -1.48737991e-01 
  -1.32323232e+01 -1.24680790e-01 
  -1.29797980e+01 -9.27053097e-02 
  -1.27272727e+01 -5.48394065e-02 
  -1.24747475e+01 -1.34845477e-02 
  -1.22222222e+01 +2.87365132e-02 
  -1.19696970e+01 +6.91461073e-02 
  -1.17171717e+01 +1.05181496e-01 
  -1.14646465e+01 +1.34557430e-01 
  -1.12121212e+01 +1.55411110e-01 
  -1.09595960e+01 +1.66420345e-01 
  -1.07070707e+01 +1.66887428e-01 
  -1.04545455e+01 +1.56783391e-01 
  -1.02020202e+01 +1.36749849e-01 
  -9.94949495e+00 +1.08058307e-01 
  -9.69696970e+00 +7.25295108e-02 
  -9.44444444e+00 +3.24179655e-02 
  -9.19191919e+00 -9.73106812e-03 
  -8.93939394e+00 -5.12430107e-02 
  -8.68686869e+00 -8.94836059e-02 
  -8.43434343e+00 -1.22026006e-01 
  -8.18181818e+00 -1.46804696e-01 
  -7.92929293e+00 -1.62246494e-01 
  -7.67676768e+00 -1.67370332e-01 
  -7.42424242e+00 -1.61849460e-01 
  -7.17171717e+00 -1.46032153e-01 
  -6.91919192e+00 -1.20919597e-01 
  -6.66666667e+00 -8.81023537e-02 
  -6.41414141e+00 -4.96594291e-02 
  -6.16161616e+00 -8.02636458e-03 
  -5.90909091e+00 +3.41593047e-02 
  -5.65656566e+00 +7.42254122e-02 
  -5.40404040e+00 +1.09634734e-01 
  -5.15151515e+00 +1.38146017e-01 
  -4.89898990e+00 +1.57956263e-01 
  -4.64646465e+00 +1.67815236e-01 
  -4.39393939e+00 +1.67104955e-01 
  -4.14141414e+00 +1.55879128e-01 
  -3.88888889e+00 +1.34860063e-01 
  -3.63636364e+00 +1.05393261e-01 
  -3.38383838e+00 +6.93626356e-02 
  -3.13131313e+00 +2.90717863e-02 
  -2.87878788e+00 -1.29010270e-02 
  -2.62626263e+00 -5.38648404e-02 
  -2.37373737e+00 -9.11843048e-02 
  -2.12121212e+00 -1.22443158e-01 
  -1.86868687e+00 -1.45591479e-01 
  -1.61616162e+00 -1.59065306e-01 
  -1.36363636e+00 -1.61866342e-01 
  -1.11111111e+00 -1.53584365e-01 
  -8.58585859e-01 -1.34320465e-01 
  -6.06060606e-01 -1.04304383e-01 
  -4.92403877e-01 -8.68240888e-02 
  -4.92308980e-01 -8.68073558e-02 
  -4.92024329e-01 -8.67571643e-02 
  -4.91550051e-01 -8.66735362e-02 
  -4.90886352e-01 -8.65565082e-02 
  -4.90033524e-01 -8.64061316e-02 
  -4.88991941e-01 -8.62224725e-02 
  -4.87762060e-01 -8.60056113e-02 
  -4.86344421e-01 -8.57556432e-02 
  -4.84739645e-01 -8.54726779e-02 
  -4.82948436e-01 -8.51568394e-02 
  -4.80971579e-01 -8.48082663e-02 
  -4.78809943e-01 -8.44271114e-02 
  -4.76464474e-01 -8.40135421e-02 
  -4.73936203e-01 -8.35677396e-02 
  -4.71226237e-01 -8.30898995e-02 
  -4.68335766e-01 -8.25802315e-02 
  -4.65266057e-01 -8.20389590e-02 
  -4.62018457e-01 -8.14663196e-02 
  -4.58594391e-01 -8.08625643e-02 
  -4.54995359e-01 -8.02279579e-02 
  -4.51222942e-01 -7.95627790e-02 
  -4.47278793e-01 -7.88673192e-02 
  -4.43164643e-01 -7.81418835e-02 
  -4.38882297e-01 -7.73867903e-02 
  -4.34433631e-01 -7.66023706e-02 
  -4.29820599e-01 -7.57889685e-02 
  -4.25045224e-01 -7.49469409e-02 
  -4.20109599e-01 -7.40766572e-02 
  -4.15015890e-01 -7.31784989e-02 
  -4.09766332e-01 -7.22528601e-02 
  -4.04363226e-01 -7.13001469e-02 
  -3.98808944e-01 -7.03207770e-02 
  -3.93105920e-01 -6.93151801e-02 
  -3.87256657e-01 -6.82837972e-02 
  -3.81263721e-01 -6.72270808e-02 
  -3.75129739e-01 -6.61454944e-02 
  -3.68857404e-01 -6.50395123e-02 
  -3.62449465e-01 -6.39096198e-02 
  -3.55908733e-01 -6.27563124e-02 
  -3.53535354e-01 -6.23378232e-02 
  -3.49238079e-01 -6.15800959e-02 
  -3.42440427e-01 -6.03814864e-02 
  -3.35518759e-01 -5.91610096e-02 
  -3.28476111e-01 -5.79192009e-02 
  -3.21315573e-01 -5.66566048e-02 
  -3.14040285e-01 -5.53737753e-02 
  -3.06653439e-01 -5.40712750e-02 
  -2.99158274e-01 -5.27496753e-02 
  -2.91558079e-01 -5.14095558e-02 
  -2.83856186e-01 -5.00515043e-02 
  -2.76055975e-01 -4.86761167e-02 
  -2.68160867e-01 -4.72839960e-02 
  -2.60174324e-01 -4.58757530e-02 
  -2.52099850e-01 -4.44520053e-02 
  -2.43940986e-01 -4.30133776e-02 
  -2.35701312e-01 -4.15605008e-02 
  -2.27384441e-01 -4.00940121e-02 
  -2.18994023e-01 -3.86145549e-02 
  -2.10533735e-01 -3.71227779e-02 
  -2.02007291e-01 -3.56193357e-02 
  -1.93418430e-01 -3.41048877e-02 
  -1.84770919e-01 -3.25800982e-02 
  -1.76068551e-01 -3.10456360e-02 
  -1.67315144e-01 -2.95021742e-02 
  -1.58514537e-01 -2.79503897e-02 
  -1.49670589e-01 -2.63909632e-02 
  -1.40787182e-01 -2.48245787e-02 
  -1.31868210e-01 -2.32519234e-02 
  -1.22917587e-01 -2.16736870e-02 
  -1.13939238e-01 -2.00905618e-02 
  -1.04937101e-01 -1.85032422e-02 
  -1.01010101e-01 -1.78108023e-02 
  -9.59151250e-02 -1.69124244e-02 
  -8.68772677e-02 -1.53188063e-02 
  -7.78274930e-02 -1.37230868e-02 
  -6.87697706e-02 -1.21259660e-02 
  -5.97080733e-02 -1.05281443e-02 
  -5.06463761e-02 -8.93032258e-03 
  -4.15886537e-02 -7.33320174e-03 
  -3.25388790e-02 -5.73748230e-03 
  -2.35010217e-02 -4.14386420e-03 
  -1.44790459e-02 -2.55304646e-03 
  -5.47690913e-03 -9.65726851e-04 
  +3.50144010e-03 +6.17398361e-04 
  +1.24520635e-02 +2.19563477e-03 
  +2.13710352e-02 +3.76829011e-03 
  +3.02544428e-02 +5.33467455e-03 
  +3.90983899e-02 +6.89410104e-03 
  +4.78989972e-02 +8.44588555e-03 
  +5.66524046e-02 +9.98934742e-03 
  +6.53547723e-02 +1.15238096e-02 
  +7.40022834e-02 +1.30485992e-02 
  +8.25911447e-02 +1.45630472e-02 
  +9.11175888e-02 +1.60664893e-02 
  +9.95778758e-02 +1.75582662e-02 
  +1.07968295e-01 +1.90377235e-02 
  +1.16285165e-01 +2.05042121e-02 
  +1.24524839e-01 +2.19570890e-02 
  +1.32683703e-01 +2.33957167e-02 
  +1.40758177e-01 +2.48194644e-02 
  +1.48744720e-01 +2.62277074e-02 
  +1.51515152e-01 +2.67162287e-02 
  +1.56639828e-01 +2.76198280e-02 
  +1.64440040e-01 +2.89952157e-02 
  +1.72141932e-01 +3.03532671e-02 
  +1.79742128e-01 +3.16933866e-02 
  +1.87237292e-01 +3.30149864e-02 
  +1.94624139e-01 +3.43174867e-02 
  +2.01899427e-01 +3.56003162e-02 
  +2.09059965e-01 +3.68629123e-02 
  +2.16102612e-01 +3.81047212e-02 
  +2.23024280e-01 +3.93251980e-02 
  +2.29821932e-01 +4.05238075e-02 
  +2.36492587e-01 +4.17000239e-02 
  +2.43033318e-01 +4.28533312e-02 
  +2.49441257e-01 +4.39832237e-02 
  +2.55713593e-01 +4.50892058e-02 
  +2.61847574e-01 +4.61707922e-02 
  +2.67840511e-01 +4.72275086e-02 
  +2.73689773e-01 +4.82588915e-02 
  +2.79392797e-01 +4.92644884e-02 
  +2.84947080e-01 +5.02438582e-02 
  +2.90350185e-01 +5.11965715e-02 
  +2.95599744e-01 +5.21222103e-02 
  +3.00693452e-01 +5.30203685e-02 
  +3.05629077e-01 +5.38906523e-02 
  +3.10404453e-01 +5.47326799e-02 
  +3.15017485e-01 +5.55460819e-02 
  +3.19466150e-01 +5.63305015e-02 
  +3.23748497e-01 +5.70855948e-02 
  +3.27862647e-01 +5.78110305e-02 
  +3.31806795e-01 +5.85064903e-02 
  +3.35579213e-01 +5.91716693e-02 
  +3.39178244e-01 +5.98062756e-02 
  +3.42602310e-01 +6.04100309e-02 
  +3.45849910e-01 +6.09826704e-02 
  +3.48919619e-01 +6.15239429e-02 
  +3.51810090e-01 +6.20336110e-02 
  +3.54520056e-01 +6.25114511e-02 
  +3.57048328e-01 +6.29572536e-02 
  +3.59393796e-01 +6.33708229e-02 
  +3.61555432e-01 +6.37519778e-02 
  +3.63532289e-01 +6.41005509e-02 
  +3.65323498e-01 +6.44163894e-02 
  +3.66928274e-01 +6.46993548e-02 
  +3.68345914e-01 +6.49493229e-02 
  +3.69575795e-01 +6.51661841e-02 
  +3.70617377e-01 +6.53498432e-02 
  +3.71470205e-01 +6.55002198e-02 
  +3.72133904e-01 +6.56172478e-02 
  +3.72608183e-01 +6.57008759e-02 
  +3.72892833e-01 +6.57510674e-02 
  +3.72987730e-01 +6.47074273e-02 
  +3.73082628e-01 +6.40366982e-02 
  +3.73187015e-01 +6.35259325e-02 
  +3.73301840e-01 +6.30765994e-02 
  +3.73428149e-01 +6.26596076e-02 
  +3.73567088e-01 +6.22610202e-02 
  +3.73719921e-01 +6.18727712e-02 
  +3.73888038e-01 +6.14896268e-02 
  +3.74072966e-01 +6.11079067e-02 
  +3.74276387e-01 +6.07248599e-02 
  +3.74500150e-01 +6.03383274e-02 
  +3.74746289e-01 +5.99465451e-02 
  +3.75017042e-01 +5.95480227e-02 
  +3.75314870e-01 +5.91414655e-02 
  +3.75642482e-01 +5.87257221e-02 
  +3.76002854e-01 +5.82997483e-02 
  +3.76399264e-01 +5.78625817e-02 
  +3.76835315e-01 +5.74133243e-02 
  +3.77314971e-01 +5.69511288e-02 
  +3.77842592e-01 +5.64751897e-02 
  +3.78422975e-01 +5.59847367e-02 
  +3.79061397e-01 +5.54790292e-02 
  +3.79763661e-01 +5.49573543e-02 
  +3.80536152e-01 +5.44190239e-02 
  +3.81385891e-01 +5.38633745e-02 
  +3.82320605e-01 +5.32897670e-02 
  +3.83348789e-01 +5.26975869e-02 
  +3.84479793e-01 +5.20862467e-02 
  +3.85723896e-01 +5.14551868e-02 
  +3.87092410e-01 +5.08038785e-02 
  +3.88597776e-01 +5.01318270e-02 
  +3.90253677e-01 +4.94385747e-02 
  +3.92075169e-01 +4.87237052e-02 
  +3.94078811e-01 +4.79868478e-02 
  +3.96282816e-01 +4.72276820e-02 
  +3.98707222e-01 +4.64459431e-02 
  +4.01374068e-01 +4.56414274e-02 
  +4.04040404e-01 +4.48870971e-02 
  +4.04307600e-01 +4.48139986e-02 
  +4.07534484e-01 +4.39635939e-02 
  +4.11084057e-01 +4.30902306e-02 
  +4.14988587e-01 +4.21940134e-02 
  +4.19283570e-01 +4.12751410e-02 
  +4.24008051e-01 +4.03339141e-02 
  +4.29204980e-01 +3.93707424e-02 
  +4.34921603e-01 +3.83861524e-02 
  +4.41209887e-01 +3.73807948e-02 
  +4.48127000e-01 +3.63554515e-02 
  +4.55735824e-01 +3.53110429e-02 
  +4.64105531e-01 +3.42486342e-02 
  +4.73312209e-01 +3.31694415e-02 
  +4.83439554e-01 +3.20748368e-02 
  +4.94579634e-01 +3.09663518e-02 
  +5.06833721e-01 +2.98456811e-02 
  +5.20313218e-01 +2.87146837e-02 
  +5.35140664e-01 +2.75753822e-02 
  +5.51450854e-01 +2.64299608e-02 
  +5.69392064e-01 +2.52807605e-02 
  +5.89127395e-01 +2.41302723e-02 
  +6.10836259e-01 +2.29811273e-02 
  +6.34716009e-01 +2.18360838e-02 
  +6.56565657e-01 +2.08814054e-02 
  +6.60983734e-01 +2.06980114e-02 
  +6.89878232e-01 +1.95698722e-02 
  +7.21662179e-01 +1.84546977e-02 
  +7.56624521e-01 +1.73555635e-02 
  +7.95083098e-01 +1.62755599e-02 
  +8.37387532e-01 +1.52177604e-02 
  +8.83922409e-01 +1.41851870e-02 
  +9.09090909e-01 +1.36756690e-02 
  +9.35110775e-01 +1.31807735e-02 
  +9.91417976e-01 +1.22073277e-02 
  +1.05335590e+00 +1.12674926e-02 
  +1.12148761e+00 +1.03637078e-02 
  +1.16161616e+00 +9.88516372e-03 
  +1.19643250e+00 +9.49817257e-03 
  +1.27887187e+00 +8.67281027e-03 
  +1.36955518e+00 +7.88923733e-03 
  +1.41414141e+00 +7.54409275e-03 
  +1.46930683e+00 +7.14873592e-03 
  +1.57903363e+00 +6.45223251e-03 
  +1.66666667e+00 +5.96844724e-03 
  +1.69973312e+00 +5.80028303e-03 
  +1.83250256e+00 +5.19306514e-03 
  +1.91919192e+00 +4.84734800e-03 
  +1.97854894e+00 +4.63037857e-03 
  +2.13919996e+00 +4.11165355e-03 
  +2.17171717e+00 +4.01735588e-03 
  +2.31591608e+00 +3.63596727e-03 
  +2.42424242e+00 +3.38405641e-03 
  +2.51030381e+00 +3.20206835e-03 
  +2.67676768e+00 +2.88913557e-03 
  +2.72413031e+00 +2.80840809e-03 
  +2.92929293e+00 +2.49471439e-03 
  +2.95933947e+00 +2.45317804e-03 
  +3.18181818e+00 +2.17519385e-03 
  +3.21806954e+00 +2.13435226e-03 
  +3.43434343e+00 +1.91270951e-03 
  +3.50267262e+00 +1.84973291e-03 
  +3.68686869e+00 +1.69445796e-03 
  +3.81573600e+00 +1.59699745e-03 
  +3.93939394e+00 +1.51105382e-03 
  +4.16010573e+00 +1.37374600e-03 
  +4.19191919e+00 +1.35548252e-03 
  +4.44444444e+00 +1.22241240e-03 
  +4.53891242e+00 +1.17754713e-03 
  +4.69696970e+00 +1.10773022e-03 
  +4.94949495e+00 +1.00822067e-03 
  +4.95559979e+00 +1.00598043e-03 
  +5.20202020e+00 +9.21340387e-04 
  +5.41395589e+00 +8.56674957e-04 
  +5.45454545e+00 +8.45056216e-04 
  +5.70707071e+00 +7.77726853e-04 
  +5.91814761e+00 +7.27342461e-04 
  +5.95959596e+00 +7.18015743e-04 
  +6.21212121e+00 +6.64825588e-04 
  +6.46464646e+00 +6.17248889e-04 
  +6.47275849e+00 +6.15804805e-04 
  +6.71717172e+00 +5.74529890e-04 
  +6.96969697e+00 +5.36035199e-04 
  +7.08283047e+00 +5.20014910e-04 
  +7.22222222e+00 +5.01230743e-04 
  +7.47474747e+00 +4.69663846e-04 
  +7.72727273e+00 +4.40948820e-04 
  +7.75390964e+00 +4.38072212e-04 
  +7.97979798e+00 +4.14755293e-04 
  +8.23232323e+00 +3.90799122e-04 
  +8.48484848e+00 +3.68834840e-04 
  +8.49209673e+00 +3.68231628e-04 
  +8.73737374e+00 +3.48649586e-04 
  +8.98989899e+00 +3.30057933e-04 
  +9.24242424e+00 +3.12897971e-04 
  +9.30410252e+00 +3.08907689e-04 
  +9.49494949e+00 +2.97027488e-04 
  +9.74747475e+00 +2.82321657e-04 
  +1.00000000e+01 +2.68670120e-04 
  +1.01973089e+01 +2.58673907e-04 
