# x [m]           p [Pa]          shear_stress [Pa]
  -4.92403877e-01 +0.00000000e+00 +0.00000000e+00
  -4.91069111e-01 +3.41145166e+01 +0.00000000e+00
  -4.87073041e-01 +6.55211729e+01 +0.00000000e+00
  -4.80440306e-01 +9.70523308e+01 +0.00000000e+00
  -4.71211797e-01 +1.27448652e+02 +0.00000000e+00
  -4.59444413e-01 +1.56629565e+02 +0.00000000e+00
  -4.45210702e-01 +1.84451608e+02 +0.00000000e+00
  -4.28598420e-01 +2.10863744e+02 +0.00000000e+00
  -4.09709987e-01 +2.35876929e+02 +0.00000000e+00
  -3.88661858e-01 +2.59566341e+02 +0.00000000e+00
  -3.65583800e-01 +2.82070153e+02 +0.00000000e+00
  -3.40618097e-01 +3.03589463e+02 +0.00000000e+00
  -3.13918672e-01 +3.24388488e+02 +0.00000000e+00
  -2.85650135e-01 +3.44795275e+02 +0.00000000e+00
  -2.55986772e-01 +3.65203059e+02 +0.00000000e+00
  -2.25111466e-01 +3.86072576e+02 +0.00000000e+00
  -1.93214574e-01 +4.07935650e+02 +0.00000000e+00
  -1.60492751e-01 +4.31400546e+02 +0.00000000e+00
  -1.27147738e-01 +4.57159677e+02 +0.00000000e+00
  -9.33851185e-02 +4.86000493e+02 +0.00000000e+00
  -5.94130497e-02 +5.18820703e+02 +0.00000000e+00
  -2.54409809e-02 +5.56649403e+02 +0.00000000e+00
  +8.32163874e-03 +6.00676398e+02 +0.00000000e+00
  +4.16666515e-02 +6.52293069e+02 +0.00000000e+00
  +7.43884744e-02 +7.13149772e+02 +0.00000000e+00
  +1.06285366e-01 +7.85237391e+02 +0.00000000e+00
  +1.37160672e-01 +8.71005023e+02 +0.00000000e+00
  +1.66824036e-01 +9.73533105e+02 +0.00000000e+00
  +1.95092573e-01 +1.09679406e+03 +0.00000000e+00
  +2.21791998e-01 +1.24605603e+03 +0.00000000e+00
  +2.46757700e-01 +1.42852792e+03 +0.00000000e+00
  +2.69835758e-01 +1.65444263e+03 +0.00000000e+00
  +2.90883888e-01 +1.93889095e+03 +0.00000000e+00
  +3.09772320e-01 +2.30562478e+03 +0.00000000e+00
  +3.26384602e-01 +2.79188644e+03 +0.00000000e+00
  +3.40618313e-01 +3.47793020e+03 +0.00000000e+00
  +3.52385698e-01 +4.42899910e+03 +0.00000000e+00
  +3.61614207e-01 +6.45088014e+03 +0.00000000e+00
  +3.68246942e-01 +7.21849908e+03 +0.00000000e+00
  +3.72243011e-01 +3.25158175e+04 +0.00000000e+00
  +3.73577778e-01 +0.00000000e+00 +0.00000000e+00
