# x [m]           p [Pa]          shear_stress [Pa]
  -4.98779404e-01 +0.00000000e+00 +0.00000000e+00
  -4.97740507e-01 +2.54379493e+01 +0.00000000e+00
  -4.94630220e-01 +4.89994705e+01 +0.00000000e+00
  -4.89467720e-01 +7.29071796e+01 +0.00000000e+00
  -4.82284835e-01 +9.63198767e+01 +0.00000000e+00
  -4.73125850e-01 +1.19261960e+02 +0.00000000e+00
  -4.62047233e-01 +1.41699600e+02 +0.00000000e+00
  -4.49117287e-01 +1.63657377e+02 +0.00000000e+00
  -4.34415731e-01 +1.85196606e+02 +0.00000000e+00
  -4.18033203e-01 +2.06418056e+02 +0.00000000e+00
  -4.00070708e-01 +2.27462231e+02 +0.00000000e+00
  -3.80638991e-01 +2.48510634e+02 +0.00000000e+00
  -3.59857854e-01 +2.69787338e+02 +0.00000000e+00
  -3.37855420e-01 +2.91561096e+02 +0.00000000e+00
  -3.14767341e-01 +3.14148068e+02 +0.00000000e+00
  -2.90735963e-01 +3.37915435e+02 +0.00000000e+00
  -2.65909448e-01 +3.63286194e+02 +0.00000000e+00
  -2.40440858e-01 +3.90745551e+02 +0.00000000e+00
  -2.14487218e-01 +4.20849478e+02 +0.00000000e+00
  -1.88208538e-01 +4.54236167e+02 +0.00000000e+00
  -1.61766837e-01 +4.91641474e+02 +0.00000000e+00
  -1.35325136e-01 +5.33919800e+02 +0.00000000e+00
  -1.09046456e-01 +5.82072544e+02 +0.00000000e+00
  -8.30928157e-02 +6.37287278e+02 +0.00000000e+00
  -5.76242265e-02 +7.00992248e+02 +0.00000000e+00
  -3.27977111e-02 +7.74933402e+02 +0.00000000e+00
  -8.76633330e-03 +8.61285062e+02 +0.00000000e+00
  +1.43217455e-02 +9.62812340e+02 +0.00000000e+00
  +3.63241797e-02 +1.08311526e+03 +0.00000000e+00
  +5.71053169e-02 +1.22700658e+03 +0.00000000e+00
  +7.65370345e-02 +1.40111513e+03 +0.00000000e+00
  +9.44995294e-02 +1.61489883e+03 +0.00000000e+00
  +1.10882057e-01 +1.88235996e+03 +0.00000000e+00
  +1.25583613e-01 +2.22560188e+03 +0.00000000e+00
  +1.38513559e-01 +2.67935023e+03 +0.00000000e+00
  +1.49592176e-01 +3.31856289e+03 +0.00000000e+00
  +1.58751161e-01 +4.20418211e+03 +0.00000000e+00
  +1.65934046e-01 +6.09021210e+03 +0.00000000e+00
  +1.71096546e-01 +6.79955487e+03 +0.00000000e+00
  +1.74206833e-01 +3.04760722e+04 +0.00000000e+00
  +1.75245730e-01 +0.00000000e+00 +0.00000000e+00
