# x [m]           y [m]
  -1.00000000e+00 +5.00000000e-01
  -9.77693666e-01 +4.55255657e-01
  -9.53394881e-01 +4.11561287e-01
  -9.27144786e-01 +3.69010596e-01
  -8.98986368e-01 +3.27697979e-01
  -8.69009359e-01 +2.87685381e-01
  -8.37242057e-01 +2.49078809e-01
  -8.03762305e-01 +2.11947488e-01
  -7.68634391e-01 +1.76371396e-01
  -7.31935940e-01 +1.42417713e-01
  -6.93739623e-01 +1.10158293e-01
  -6.54120799e-01 +7.96627604e-02
  -6.13165267e-01 +5.09874538e-02
  -5.70954572e-01 +2.41940577e-02
  -5.27575590e-01 -6.63389330e-04
  -4.83118160e-01 -2.35362070e-02
  -4.37671546e-01 -4.43744908e-02
  -3.91318554e-01 -6.31102694e-02
  -3.44179488e-01 -7.97697301e-02
  -2.96329974e-01 -9.42629297e-02
  -2.47875087e-01 -1.06581726e-01
  -1.98911439e-01 -1.16690631e-01
  -1.49541393e-01 -1.24579059e-01
  -9.98646174e-02 -1.30222358e-01
  -4.99835081e-02 -1.33614071e-01
  -2.85766344e-11 -1.34744434e-01
  +4.99835080e-02 -1.33614071e-01
  +9.98646174e-02 -1.30222358e-01
  +1.49541393e-01 -1.24579059e-01
  +1.98911439e-01 -1.16690631e-01
  +2.47875087e-01 -1.06581725e-01
  +2.96329974e-01 -9.42629297e-02
  +3.44179488e-01 -7.97697300e-02
  +3.91318554e-01 -6.31102695e-02
  +4.37671546e-01 -4.43744908e-02
  +4.83118160e-01 -2.35362069e-02
  +5.27575590e-01 -6.63389301e-04
  +5.70954572e-01 +2.41940577e-02
  +6.13165267e-01 +5.09874538e-02
  +6.54120799e-01 +7.96627604e-02
  +6.93739623e-01 +1.10158293e-01
  +7.31935940e-01 +1.42417713e-01
  +7.68634391e-01 +1.76371396e-01
  +8.03762305e-01 +2.11947488e-01
  +8.37242057e-01 +2.49078809e-01
  +8.69009359e-01 +2.87685381e-01
  +8.98986368e-01 +3.27697979e-01
  +9.27144786e-01 +3.69010596e-01
  +9.53394881e-01 +4.11561287e-01
  +9.77693666e-01 +4.55255657e-01
  +1.00000000e+00 +5.00000000e-01
